#f / Hz , U_A / V, -phi/Grad
15,         19.70,     180 
60,         19.70,     180
160,        19.70,     178
247,        19.70,     178
804,        19.70,     173
1707,       19.00,     164
2250,       18.50,     160
4050,       16.30,     142
6030,       13.70,     128
8080,       11.30,     117
10000,      9.40 ,     110
21100,      5.50 ,     101
46200,      2.70 ,     92
150100,     0.80 ,     85
200000,     0.60 ,     82
400000,     0.34 ,     70
1006000,    0.16 ,     50