#f / Hz , U_A / V, -phi/Grad
15,         6.30,   180
60,         6.30,   180
160,        6.30,   180
243,        6.30,   180
810,        6.30,   179
1700,       6.20,   175
2330,       6.20,   172
7100,       5.70,   151
10000,      5.20,   140
14000,      4.50,   127
20700,      3.80,   115
46100,      2.40,   105
150800,     0.78,   89
204000,     0.60,   85
405000,     0.32,   73
1006000,    0.16,   46
